20150529,88.6900,89.5200,88.2600,89.4200,3948900
20150601,88.7600,89.1200,88.1800,89.0200,2886500
20150602,89.7700,90.3500,88.2100,89.0200,3581600
20150603,89.0100,90.4700,88.9700,89.5500,2158400
20150604,87.3800,89.1300,87.2800,88.2300,3774200
20150605,89.6800,90.6400,86.8200,87.0000,4429900
20150608,89.1100,89.9600,88.6300,89.3700,2755700
20150609,89.0900,91.4800,89.0900,90.0200,2661000
20150610,90.4100,90.7100,89.6600,90.3900,2914800
20150611,90.6500,91.0500,90.2300,91.0000,2300900
20150612,89.5300,90.4300,89.1200,90.1600,2464100
20150615,89.2200,89.8600,88.5000,88.5100,2795300
20150616,90.0800,90.3600,89.0300,89.0700,2286400
20150617,89.0200,91.1500,88.4200,90.6800,4998100
20150618,88.8100,90.1300,88.5400,89.7600,3602500
20150619,88.2700,89.1200,88.2400,88.2900,4298600
20150622,88.0800,88.6700,87.4500,88.6000,2845600
20150623,88.7900,88.8200,87.6600,88.2800,3613300
20150624,88.3400,89.0700,88.1000,88.5400,3785900
20150625,87.6500,88.2700,87.3000,88.1700,3797800
20150626,88.0600,88.7000,87.0800,87.6000,11406600
20150629,86.2500,87.9400,86.1500,86.9900,4022300
20150630,87.5500,87.9000,86.3400,86.9900,3941400
20150701,85.7700,87.8500,84.8400,87.8500,4644500
20150702,85.6700,86.7000,85.5900,85.9500,2699900
20150706,85.0900,86.1800,84.0500,84.4900,3513300
20150707,86.7200,87.1000,83.8300,85.7800,5118300
20150708,84.4900,86.9200,84.0000,86.1000,4681200
20150709,85.3000,87.3500,85.1800,85.9900,3784000
20150710,84.5400,86.7600,84.4500,85.9800,2903800
20150713,84.2100,84.7900,83.4700,84.5300,3830200
20150714,85.2300,85.6400,84.1000,84.2000,3276100
20150715,83.2500,85.2300,83.0500,84.6200,3917300
20150716,82.4000,83.8000,82.3400,83.7400,4019300
20150717,80.5000,82.1500,80.2600,81.9700,6069300
20150720,77.9300,80.2500,77.9200,80.2400,7054000
20150721,77.3300,78.3800,76.9400,78.0900,6823700
20150722,76.0900,77.4900,75.7600,77.1800,7205200
20150723,76.3200,76.8200,75.4700,76.2000,6335400
20150724,75.1600,76.5800,74.6200,76.1000,5850200
20150727,73.1900,74.7300,72.8600,74.1000,5621300
20150728,76.8500,77.5600,73.4000,73.4000,7887200
20150729,77.7400,79.0100,76.5000,76.5000,6360600
20150730,78.5400,78.7200,76.8000,77.6500,4539800
20150731,77.1900,78.3100,77.0000,78.0000,4190200
20150803,76.4400,77.6300,75.4500,76.2000,5136500
20150804,76.7400,77.7700,76.3500,77.0800,3981900
20150805,76.0900,78.9500,75.9600,78.0600,4896800
20150806,77.6800,78.3400,75.3000,75.6500,6709500
20150807,73.7600,78.7000,73.0300,75.2500,8476100
20150810,76.2700,76.4800,73.6200,73.6700,6935200
20150811,77.3000,77.4300,74.1800,75.1300,5976000
20150812,79.9300,80.2600,76.5000,77.3200,8234000
20150813,79.6800,80.5000,78.3400,79.3000,5889700
20150814,79.9300,80.8800,78.8000,79.5000,3908100
20150817,80.0100,80.1600,78.8900,79.5000,3747200
20150818,80.4100,80.5400,79.2800,79.7100,3536700
20150819,77.0700,79.8800,76.0700,79.8700,6122900
20150820,76.7300,78.4400,76.6100,77.0200,6793500
20150821,74.8600,77.4300,74.1200,76.3900,7769100
20150824,69.2600,73.2800,68.1500,70.0000,9518800
20150825,68.3600,72.1100,68.2900,72.1000,6720600
20150826,70.9900,71.0400,68.4000,70.2100,6763700
20150827,75.7900,76.1000,72.8600,72.9900,7160700
20150828,77.3100,79.3400,75.4100,75.5000,6962200
20150831,78.3100,79.1600,74.5700,76.2000,6864000
20150901,76.0200,77.3200,75.1800,76.0200,6376900
20150902,77.7100,77.7100,74.8700,77.0600,5356500
20150903,77.4500,80.1600,76.7900,78.2500,6228100
20150904,76.8900,77.4400,75.9500,76.2200,4700700
20150908,77.6600,78.1800,75.4500,77.5800,5137600
20150909,76.9300,79.3500,76.6700,78.7400,6445400
20150910,78.0600,78.2400,76.1300,77.5700,4814700
20150911,77.1500,77.4100,75.8400,76.7500,4571800
20150914,76.4300,77.1500,76.0400,77.1500,3705000
20150915,77.2500,77.8000,76.5600,77.0400,3650500
20150916,79.9400,80.1700,77.4600,77.6800,3996000
20150917,79.6600,81.1800,79.1200,80.0200,5499100
20150918,76.2600,79.1900,75.9300,78.8600,6047600
20150921,76.5200,77.3300,75.8700,77.0500,3258700
20150922,75.2200,76.6600,74.6900,75.4300,3433900
20150923,73.0400,75.9300,72.8700,75.2400,3891400
20150924,73.2600,73.7200,71.4800,72.2900,4443600
20150925,72.7900,74.2100,72.1900,74.0600,3894300
20150928,69.4300,72.1900,69.1000,71.7400,4581900
20150929,70.1300,70.6700,69.1400,69.8600,3773600
20150930,72.8000,72.9400,70.6700,70.8500,4809200
20151001,73.5900,75.6800,73.0000,73.8000,5683400
20151002,77.0600,77.4500,71.5900,72.6700,6032600
20151005,80.6500,81.7000,78.0000,78.1600,7429300
20151006,82.8400,83.7300,80.5500,80.7200,6777000
20151007,83.7700,85.4000,82.1800,84.3700,6893100
20151008,87.0400,87.2700,83.0700,83.3100,6795000
20151009,87.3000,88.3000,86.1000,87.3500,5802200
20151012,86.0300,88.0000,84.9300,87.1200,4804200
20151013,85.2800,86.2900,84.7500,85.1300,5605900
20151014,85.7800,86.1400,84.7600,84.9900,3325400
20151015,87.1400,87.1600,84.9300,85.3000,3609900
20151016,87.5000,88.0000,86.5600,87.7500,4104500
20151019,84.8100,86.4700,84.1100,86.2700,4256500
20151020,84.8700,85.6500,83.9500,84.5700,3553400
20151021,83.7800,84.7000,83.4100,84.4400,3005600
20151022,85.8000,86.1700,84.3700,84.6300,2901100
20151023,85.4300,86.0900,84.3200,85.0900,2674900
20151026,83.3900,85.2900,83.2500,85.1000,3496500
20151027,82.7000,82.9500,80.0500,81.8400,5147700
20151028,84.7900,86.1700,82.3500,82.9800,3830000
20151029,85.5200,85.9000,84.1300,84.3200,2984100
20151030,85.8500,86.6800,84.3700,85.7800,3161600
20151102,86.0700,86.5000,84.7100,85.1400,3597500
20151103,88.4500,89.5200,86.2800,86.9000,5513900
20151104,86.4700,88.9600,85.7500,88.4800,3908700
20151105,86.4700,88.2200,85.4500,86.2800,4033800
20151106,85.2700,88.4900,84.2300,85.4100,5272300
20151109,85.3700,87.1800,84.4900,85.9400,3849900
20151110,86.5800,86.8800,84.7200,85.2200,3909700
20151111,83.3200,87.9000,83.1900,86.3500,3545500
20151112,81.6900,82.7500,80.9300,82.3400,3436700
20151113,82.2500,82.9500,80.5000,81.6500,3111800
20151116,84.7900,84.8600,82.0000,82.4400,3052700
20151117,82.9800,84.3100,81.9300,84.2900,3290100
20151118,85.1500,85.2600,82.9500,83.8400,3200900
20151119,82.6500,84.6400,81.7400,84.2600,2797900
20151120,82.6300,83.2700,81.9800,83.0000,2980700
20151123,82.5700,83.3800,82.0600,82.3600,2718700
20151124,85.1400,85.6500,83.1600,83.3000,4420900
20151125,83.5300,84.6300,83.2000,84.2400,3037000
20151127,82.0200,83.2700,81.9000,82.8800,1446600
20151130,83.4300,84.6400,82.2000,82.4100,3833500
20151201,84.0500,84.1300,83.0200,83.4500,2584200
20151202,80.8600,84.0600,80.4100,83.3300,4543300
20151203,80.9900,82.4800,80.2500,81.6400,4675000
20151204,80.4900,80.8400,78.5000,79.2900,4754200
20151207,76.1900,78.4000,74.5500,77.8800,6354500
20151208,77.1100,77.8800,73.9300,74.7200,5336800
20151209,78.3800,80.4000,76.8800,77.4700,5377100
20151210,78.1800,80.1500,77.4000,77.8400,5033300
20151211,74.8900,79.4300,74.7600,77.3200,4962000
20151214,76.8600,77.0300,73.7200,74.3600,5854600
20151215,77.3000,78.6600,76.9800,77.9700,5697000
20151216,75.8000,77.6200,75.7200,77.2900,4961300
20151217,73.3000,75.9800,71.9300,75.4700,6110000
20151218,71.4300,73.8700,71.4100,73.1900,6633800
20151221,70.2500,71.8500,69.3000,71.6000,5078800
20151222,69.8100,71.5800,69.5800,70.3300,5234600
20151223,73.6900,73.7600,70.7900,71.4000,5352700
20151224,73.4200,73.9800,72.6500,73.7500,1792900
20151228,70.4900,71.9800,70.2100,71.7600,3998000
20151229,71.0900,72.3300,70.5500,71.8800,3168400
20151230,70.6100,71.0900,69.7400,69.8000,3354700
20151231,70.7900,71.5900,70.0000,70.1100,3117300
20160104,69.6800,71.0000,68.8300,70.8000,5136700
20160105,70.1300,70.5400,68.5700,70.0600,3665200
20160106,67.3200,68.5000,66.7000,68.5000,6626700
20160107,65.4600,69.0100,65.1900,65.9200,5297900
20160108,65.5200,66.4300,64.7700,65.8600,4990100
20160111,63.6700,66.0600,62.9200,65.8800,5356600
20160112,62.9200,65.1800,61.3500,64.6500,7124500
20160113,64.1700,64.6600,62.5900,63.4200,7745400
20160114,65.2600,66.6100,63.6100,64.6700,7134900
20160115,62.9700,64.0200,61.0100,62.0100,5870600
20160119,60.9800,63.6300,59.4800,63.1500,5477000
20160120,60.2400,60.8800,57.1500,59.7300,10621600
20160121,63.7500,64.2500,59.4100,60.2400,7403900
20160122,66.0200,67.4900,64.6700,66.4400,6827100
20160125,61.5900,66.1500,61.5100,64.6200,4969200
20160126,66.0300,66.1300,62.2900,63.0000,6789000
20160127,66.0700,67.9300,64.4900,65.0900,7071300
20160128,68.6300,69.7900,66.6500,69.2300,6737700
20160129,71.0200,71.1800,69.0200,69.1700,6883200
20160201,69.0900,70.0000,67.6900,69.3000,4489100
20160202,67.1600,69.3700,66.0000,67.0100,5463600
20160203,70.1900,70.2700,66.3200,68.6100,5381200
20160204,68.4400,71.3900,68.1400,70.6700,5174300
20160205,67.0600,67.6800,65.6200,67.6800,5514400
20160208,68.4300,68.8000,64.7500,65.6600,6274500
20160209,65.5900,67.9700,64.3400,67.2100,6382800
20160210,65.7900,66.7800,63.9100,65.4500,4302100
20160211,65.5600,65.9900,63.0600,63.6200,5413000
20160212,67.7000,68.7600,65.9800,66.8200,5476800
20160216,67.8900,69.0900,66.2500,68.7700,3747900
20160217,70.8200,70.9400,67.6000,69.0000,6288200
20160218,69.4600,71.2300,69.3400,70.9900,3668100
20160219,69.7100,69.7300,68.0600,68.6100,3575100
20160222,72.2100,72.7700,69.7100,69.7100,4684600
20160223,68.0200,71.7500,67.6500,71.6900,4418700
20160224,69.5200,69.9400,66.7500,67.2300,4151500
20160225,68.5000,70.3000,67.1700,69.1900,5356700
20160226,67.5000,69.7000,65.7400,68.0000,10600800
20160229,64.7400,67.5600,64.7200,67.4200,7950300
20160301,65.0200,65.4700,62.5300,65.1000,7542900
20160302,67.0000,67.1200,64.1400,64.9500,5243400
20160303,69.2500,69.6700,66.1800,66.9500,6644400
20160304,71.4100,71.5200,68.7400,69.9100,7930800
20160307,75.4700,75.5300,70.2200,71.1200,8446300
20160308,70.5600,74.8400,70.4800,74.6500,6598900
20160309,72.2600,72.5000,69.8100,71.5900,4693500
20160310,72.2700,72.8600,70.3100,71.1600,4558400
20160311,75.1800,75.8900,72.9900,73.1400,4282000
20160314,74.7800,75.4500,73.2900,73.7100,3188400
20160315,73.6100,74.3700,71.9000,73.8200,3910500
20160316,75.0400,75.2700,72.6900,74.3700,4881800
20160317,76.5000,77.4500,75.1800,75.6600,4675100
20160318,75.6300,77.7000,74.6300,77.5000,7455600
20160321,75.9600,76.3200,74.5900,75.0200,2899600
20160322,75.9000,77.2500,75.3800,75.3900,2844300
20160323,74.3400,76.5400,73.8400,75.4500,3840700
20160324,74.3000,74.9100,72.3200,72.4200,3621400
20160328,74.5300,74.7600,73.5200,74.3000,2628700
20160329,75.4500,75.6400,73.1400,73.1700,3243000
20160330,73.6600,76.5000,73.5900,76.4400,4136200
20160331,72.5800,74.4200,72.3700,73.4800,5664700
20160401,72.0400,72.4700,70.4100,70.8500,5143400
20160404,70.3100,72.6300,70.1100,72.4800,3452600
20160405,70.5400,71.3600,69.6600,69.8900,3467500
20160406,71.2200,71.7100,69.7600,70.6800,4159200
20160407,71.4500,72.0800,70.3900,70.7900,3017600
20160408,73.4700,73.5000,72.4400,73.3700,3215900
20160411,74.0100,74.7800,73.7000,73.8800,3457500
20160412,77.5100,77.8300,73.5400,74.4600,5528000
20160413,77.7800,78.1800,76.3200,77.6100,4629100
20160414,77.8100,78.6300,77.0000,78.0300,2666700
20160415,75.7100,77.4200,75.0700,77.4200,4868800
20160418,77.4400,77.6800,73.5700,74.0400,3586400
20160419,79.1300,80.1800,77.7000,78.5200,3829900
20160420,79.3700,80.0600,76.6400,78.1300,4066200
20160421,79.1600,80.2900,78.7100,79.3800,3336600
20160422,80.9200,81.7800,79.5000,79.6700,3157300
20160425,79.7600,80.5200,79.0400,80.3900,2828100
20160426,82.7800,82.8600,79.9700,80.5200,3652300
20160427,84.5100,85.4300,83.0400,83.6900,3713100
20160428,81.8900,84.7500,81.6000,83.8500,3192000
20160429,82.6200,83.2400,81.0300,82.7100,4556200
20160502,82.7800,83.0600,80.6800,82.3300,4288500
20160503,80.6300,82.2300,80.0500,81.4400,3771800
20160504,79.3400,82.0000,78.8100,80.6100,3727400
20160505,81.2600,82.7500,80.1500,80.4400,5186400
20160506,78.6800,81.6500,78.0800,78.8300,5070700
20160509,78.6400,78.8300,77.0400,78.2100,2962800
20160510,79.7300,79.8500,78.7100,78.7700,4032100
20160511,80.3200,81.2100,78.2200,79.3800,3171100
20160512,80.5000,81.8500,79.5500,81.3900,2277400
20160513,78.6500,80.9700,78.6000,80.2100,3184500
20160516,80.6900,81.4100,79.6400,79.6400,2959800
20160517,81.5700,82.4800,80.3900,80.8000,3950900
20160518,80.4100,82.1500,79.8800,81.3600,2478500
20160519,80.0800,80.1900,77.6600,79.1500,3683900
20160520,80.9200,81.3100,79.5400,80.5900,3313600
20160523,81.2700,81.8700,79.7300,79.8000,3193500
20160524,82.4900,83.0800,80.6500,81.7900,3311700
20160525,83.0800,83.3800,82.2900,82.5000,2895200
20160526,82.3000,83.9400,82.2100,83.5500,2345600
20160527,81.5700,82.2600,80.7700,81.9400,2097400
