20150529,114.4450,115.1600,114.0200,114.6350,1199800
20150601,114.5150,115.1300,113.6400,114.0850,903400
20150602,114.1250,114.9550,113.5050,114.3350,768600
20150603,114.9950,115.0500,114.0100,114.6650,1114000
20150604,114.3850,115.1250,114.1200,114.4650,1406600
20150605,114.3150,114.5800,113.2350,113.9600,1045800
20150608,114.0500,114.2850,113.6050,114.2050,1051000
20150609,114.6250,115.1450,113.8000,114.2400,1070600
20150610,115.9400,116.4950,115.0050,115.2150,1979400
20150611,116.9950,117.4750,115.4800,116.4050,1806200
20150612,116.6250,116.9700,116.0950,116.8250,1160800
20150615,115.4300,116.1400,114.9500,115.6400,990500
20150616,116.0000,116.1900,115.0000,115.2200,1286900
20150617,116.6700,116.8300,115.1400,116.2700,2525400
20150618,117.8100,118.2400,116.7900,117.1200,1668900
20150619,117.3000,118.0200,116.8200,117.1600,2210000
20150622,118.1700,118.6400,117.7600,118.0000,901000
20150623,118.2900,118.6900,117.7600,118.4800,1174900
20150624,117.9700,118.4900,117.9000,118.2800,1918300
20150625,117.7400,118.5600,117.7000,118.1000,1207800
20150626,118.0100,118.2300,117.6000,118.1400,751300
20150629,114.9800,117.3100,114.8800,117.1400,996800
20150630,114.7200,116.0000,114.4000,115.6900,1114600
20150701,116.5000,116.5600,115.2300,115.7800,1256400
20150702,115.9100,117.3200,115.2400,117.1500,943200
20150706,115.1000,115.9800,114.2100,114.8100,1425900
20150707,115.0600,115.3300,113.3600,115.3300,1640800
20150708,113.1000,114.4900,113.0200,113.9100,1537000
20150709,112.6400,114.8500,112.6300,114.6600,1718900
20150710,114.9000,115.0300,113.5400,114.1200,1364100
20150713,116.5300,116.6100,115.9600,116.1900,1474700
20150714,117.6100,117.8900,116.4600,116.5000,1185100
20150715,116.9800,117.9900,116.7900,117.3200,1509800
20150716,111.8200,118.2700,111.5400,117.0900,5355400
20150717,111.8000,113.5400,111.6600,112.4600,3351900
20150720,110.8500,112.0000,110.6200,111.9500,2146900
20150721,108.2100,111.5500,107.8600,111.1200,3796700
20150722,108.0900,108.8100,107.2900,108.1200,2440900
20150723,105.6300,108.1900,105.1000,108.1000,3033200
20150724,103.2500,105.6000,102.1900,105.5400,3111900
20150727,102.3900,103.2100,101.6100,102.6900,2766000
20150728,106.9200,107.1900,102.6400,103.0100,3080800
20150729,108.5700,108.9900,106.8400,107.0800,2653500
20150730,108.5200,108.7600,107.5700,108.5000,1233500
20150731,108.3800,109.3700,108.1800,109.0000,1362400
20150803,107.8700,108.7100,107.0700,107.3100,1535400
20150804,106.5400,108.4600,106.2000,108.0000,1598100
20150805,106.5900,108.0900,106.2600,107.6900,1207700
20150806,105.2100,106.5400,104.9100,106.2400,1507300
20150807,103.9200,105.1500,103.7400,104.8600,1589300
20150810,106.6100,106.6100,104.4000,104.7200,1196600
20150811,104.4100,105.4100,103.8000,105.3600,1476900
20150812,104.0300,104.2100,102.2500,103.6400,3558600
20150813,103.5200,104.4000,103.4600,104.2600,1230500
20150814,104.7000,104.8000,103.3900,103.6400,1344700
20150817,104.2600,105.0900,103.8500,104.2100,1578000
20150818,104.5700,105.7100,104.3600,104.4200,2426300
20150819,102.5000,104.0900,102.1500,103.7800,2175200
20150820,99.8700,102.4000,99.8700,101.9100,2302400
20150821,97.2100,99.3100,97.1200,98.5600,2543000
20150824,92.2600,95.9500,91.0000,92.0300,3951100
20150825,91.0500,94.8700,91.0200,94.8700,2960900
20150826,93.1000,93.2200,91.0000,92.6800,3991700
20150827,95.1900,95.8500,93.2700,94.6700,4585900
20150828,96.1100,96.3800,94.8500,94.8500,1709800
20150831,95.2900,96.6600,94.7600,95.5600,1714100
20150901,91.3500,93.6300,90.8100,93.2700,2433800
20150902,93.5300,93.5300,91.6200,92.8500,2497700
20150903,93.9800,94.8900,93.5600,94.0600,1471700
20150904,93.3100,93.8400,92.2900,92.6700,2149400
20150908,96.4000,96.4100,94.5200,94.9400,1709600
20150909,96.1000,97.8800,95.9700,97.3600,2925400
20150910,96.6400,97.3900,95.5700,96.0900,2114900
20150911,96.7200,96.7800,95.4200,96.3000,1472600
20150914,94.1600,96.7700,93.7400,96.3100,2396200
20150915,94.2800,95.3300,93.6700,94.1600,2385600
20150916,95.0700,95.3600,94.3200,94.4200,1827500
20150917,94.4600,96.0400,94.1100,95.0700,2171400
20150918,93.1900,93.9900,92.7300,93.1100,2220800
20150921,93.4500,94.3300,93.0200,93.5500,1186600
20150922,91.6200,92.5700,90.5400,92.2300,1904700
20150923,89.9400,92.1700,89.8000,91.7500,1698800
20150924,88.1100,89.4600,87.1900,89.0500,3718200
20150925,88.3400,89.2300,87.6300,88.6600,1507100
20150928,84.5100,87.8300,84.4000,87.5000,2321800
20150929,85.9500,86.3200,84.5000,84.6900,2483700
20150930,87.6900,88.2200,86.9500,87.0900,2928400
20151001,90.1300,90.1800,82.9300,82.9300,3581500
20151002,92.6600,92.7200,88.3500,89.0500,2322000
20151005,94.5900,94.8500,93.2000,93.4400,1973100
20151006,93.4000,95.2000,93.2500,94.6100,2351700
20151007,94.3100,94.3400,92.4800,92.9000,2207500
20151008,95.7700,95.9900,93.7900,94.1700,1293600
20151009,95.9700,96.4600,95.0100,95.7000,1695300
20151012,97.3400,97.7100,96.0100,96.6600,1818700
20151013,97.1800,98.0500,95.8700,96.5400,2226700
20151014,97.3200,98.2300,96.7600,96.8500,2241800
20151015,99.2600,99.3800,96.3100,97.8100,3253600
20151016,100.7400,103.2600,99.9900,100.2000,3795600
20151019,101.1800,101.2800,99.4000,100.0300,1295800
20151020,101.3800,102.4000,100.7500,101.1700,1435700
20151021,100.6400,101.8500,100.0000,101.7200,1977600
20151022,103.6200,104.0000,101.3400,101.6000,2496900
20151023,103.9900,104.8800,103.7300,104.5000,1546600
20151026,103.9300,104.4800,103.4200,104.1000,1279200
20151027,102.9300,104.1900,102.6300,103.4700,1315200
20151028,104.3300,104.3500,102.7100,103.4700,1040500
20151029,104.2800,104.6700,103.5800,104.4000,1099800
20151030,104.2600,104.7800,103.6800,104.5800,1519900
20151102,104.0000,104.6900,103.3600,104.2200,1457200
20151103,104.1900,104.7900,103.6600,104.0500,1012600
20151104,103.8600,104.7200,103.7900,104.6500,730400
20151105,103.2100,104.0100,102.4400,103.7200,910000
20151106,103.0000,103.2600,101.8300,102.4900,1012100
20151109,101.7300,102.7700,100.7500,102.7100,893100
20151110,101.1200,101.8500,100.3800,101.3900,1316200
20151111,101.6100,101.9700,100.8500,101.5100,1010800
20151112,99.2100,101.1200,99.2100,100.6100,1903900
20151113,100.8300,101.4800,98.8600,99.3400,1938300
20151116,101.9500,102.1200,100.2300,100.9100,1766600
20151117,101.7100,103.0600,101.4500,101.9000,1381100
20151118,104.2300,104.5200,101.5500,101.8100,2128300
20151119,103.3700,104.5700,102.8800,104.2300,1252200
20151120,104.6200,105.0800,103.3100,103.5000,1761000
20151123,105.4700,106.0300,104.2900,105.0000,1999700
20151124,105.4900,106.0400,104.5300,104.5300,1159600
20151125,106.4600,106.7600,105.3800,105.9100,1152300
20151127,106.2100,106.6800,105.5400,106.2800,491600
20151130,105.7400,106.4900,105.1200,106.3600,1560400
20151201,106.7600,106.8700,105.8200,106.3900,1008300
20151202,105.3400,106.7400,105.0800,106.2000,996000
20151203,104.3000,105.9900,103.9200,105.4000,1131600
20151204,105.9600,106.3700,104.3700,104.5100,1079800
20151207,104.9900,105.8600,104.2800,105.2700,1000700
20151208,102.7500,104.5300,102.6600,103.9200,1568200
20151209,101.5500,103.5800,100.5900,102.7500,2035900
20151210,100.8800,101.7400,100.5100,101.3300,1651600
20151211,98.7300,100.8800,98.4100,100.8800,1783100
20151214,97.7300,98.9600,96.8800,98.5600,2216300
20151215,98.5500,99.4200,98.4700,98.7200,1258100
20151216,100.2200,100.3300,98.5300,99.1800,1585800
20151217,98.2400,100.6600,98.1700,100.5300,1583900
20151218,96.2900,98.2000,96.2500,97.9900,1808000
20151221,97.2300,97.3700,96.4900,96.9200,1202200
20151222,98.7600,99.1600,97.5600,97.9000,887300
20151223,100.2400,100.5200,99.2400,99.3800,828000
20151224,100.3900,100.7900,99.9400,99.9400,371800
20151228,99.9000,100.3300,99.4200,100.2000,680700
20151229,100.5800,100.9400,99.9500,100.8200,676300
20151230,99.7700,100.7100,99.7100,100.3300,730400
20151231,98.8200,100.0000,98.7900,99.3800,895400
20160104,97.9600,97.9900,96.0600,97.2700,1636400
20160105,98.3100,99.3200,97.4700,98.6300,1401500
20160106,96.4700,97.2000,95.9300,96.4400,1809300
20160107,95.2500,97.1400,94.6800,95.0700,2597600
20160108,94.4900,96.6400,94.1700,95.6800,1979300
20160111,94.4500,95.7200,93.7300,94.8400,2187200
20160112,95.1200,95.5600,93.7900,95.3300,1320700
20160113,93.0500,96.2400,93.0100,95.9800,2119900
20160114,93.5700,94.1200,91.6000,93.2900,2300200
20160115,91.9000,92.3500,90.3400,91.6400,2052800
20160119,91.6000,93.2500,89.9000,92.8000,3318000
20160120,93.5200,94.6900,90.0200,90.4500,4935200
20160121,91.9200,94.6700,90.6100,93.0000,4310700
20160122,93.1600,94.8100,92.3300,92.7900,1860700
20160125,91.1100,93.3200,90.9300,92.8100,1623200
20160126,92.5800,93.2900,91.1100,91.4800,1236800
20160127,92.8000,94.2400,91.9000,92.4300,1887400
20160128,92.0900,94.0400,91.9800,93.2900,2347300
20160129,95.1200,95.1400,92.2800,92.7200,2365400
20160201,95.5900,95.9000,93.2500,93.7100,1748400
20160202,93.0400,94.9700,92.6600,94.9700,1636000
20160203,95.1100,95.1500,91.8700,94.2900,1831600
20160204,95.7000,96.3200,94.6000,95.3300,1457500
20160205,92.8700,95.8300,92.7100,95.3100,1544400
20160208,89.6500,92.2800,88.8600,92.2100,1926800
20160209,90.9900,91.6800,88.3700,88.6200,1567200
20160210,91.3400,93.2100,91.0400,91.6700,1240200
20160211,89.2700,90.7300,88.4700,89.3500,1796500
20160212,91.7800,92.1400,89.6200,90.0600,1438700
20160216,93.6200,93.7700,91.7800,93.0600,1198900
20160217,95.0000,95.4500,93.0100,94.3100,1850200
20160218,94.6900,95.5800,94.1400,95.2000,1506400
20160219,95.6300,95.7400,93.6800,94.6600,1592300
20160222,96.7200,98.0000,95.8600,96.8700,1291100
20160223,94.8700,96.6600,94.7000,96.5400,1260300
20160224,95.6800,95.8100,92.9500,93.6100,815200
20160225,97.0100,97.0600,94.5600,96.1100,1036800
20160226,98.1600,98.4500,97.3600,97.7300,1079000
20160229,96.5300,98.8400,96.4900,97.9700,1430900
20160301,99.5800,100.4900,96.9200,97.5500,1503400
20160302,99.3300,99.7400,98.4300,99.2200,945100
20160303,100.3000,100.7500,98.2300,98.9600,1921700
20160304,102.4900,102.9300,100.3200,100.6700,2072600
20160307,103.3700,103.4500,101.6400,101.8400,1649000
20160308,101.5100,102.6500,101.3500,102.3800,1280000
20160309,102.2800,102.7100,101.3800,102.2000,1147500
20160310,102.9100,104.2200,101.8400,102.6000,901500
20160311,105.0100,105.2300,103.7800,104.1500,1479600
20160314,104.7400,105.1000,104.0000,104.3400,878700
20160315,104.7600,104.9500,103.6200,103.9500,819300
20160316,106.6100,106.6700,104.1300,104.2200,1122600
20160317,109.4000,109.7100,106.9000,106.9000,1789700
20160318,108.9000,110.5800,108.0500,109.6200,2628400
20160321,108.8900,110.5300,108.2800,109.6200,2170300
20160322,109.8400,110.2000,108.5600,108.8000,1663300
20160323,109.1400,109.6800,108.1300,108.9100,1222300
20160324,108.9500,109.0600,107.3800,108.2000,1386000
20160328,109.4000,109.6100,108.7400,109.3900,1043300
20160329,110.5700,110.5900,108.6100,108.8000,1026300
20160330,111.9000,112.1000,110.7300,111.0000,1636800
20160331,111.4900,112.0800,111.1300,111.9000,1438900
20160401,113.1100,113.2900,110.2200,110.4400,1453000
20160404,112.1900,113.2300,111.6300,113.1500,1390500
20160405,111.4300,112.0400,110.9100,111.4900,1319200
20160406,112.0800,112.2000,110.6400,111.3700,812100
20160407,110.6100,111.8300,110.0800,111.3500,921200
20160408,111.8300,112.1400,111.0300,111.0300,712000
20160411,111.6800,112.8400,111.5900,112.0700,887100
20160412,112.9400,113.1700,111.3600,112.0900,871300
20160413,114.2300,114.2900,112.7400,113.4200,1062900
20160414,114.5100,114.5900,113.7400,113.7400,1070100
20160415,115.3500,115.4000,114.3900,114.6900,1284900
20160418,115.7500,115.9300,114.6400,115.0000,1543200
20160419,116.5500,116.8000,115.7700,116.2400,1466600
20160420,116.0700,117.0000,115.5500,116.8500,1593700
20160421,110.2600,113.0000,110.1000,111.7000,3641300
20160422,113.1900,113.3900,110.7800,111.3500,2145500
20160425,112.6000,113.3000,111.9700,113.0000,951000
20160426,113.5500,113.9100,113.0100,113.3700,1525900
20160427,112.9900,114.6500,112.5900,113.8900,1246900
20160428,112.7700,113.4000,111.5300,111.8900,1617400
20160429,110.3900,112.7300,109.7500,112.4000,2308500
20160502,111.2400,111.2500,109.0400,110.1800,1390100
20160503,109.5000,110.2200,109.0200,110.0900,1303300
20160504,108.5900,109.3600,108.0000,108.5100,1062100
20160505,108.5800,109.5300,108.2300,109.0400,810200
20160506,108.3100,108.3100,107.1800,107.7000,1166300
20160509,107.4400,108.2300,107.2900,108.1400,1037700
20160510,108.7300,108.8300,107.2600,107.8000,805700
20160511,107.4200,109.2000,107.3800,108.7400,1601300
20160512,107.4900,108.5500,106.3600,108.2300,1123300
20160513,106.7000,108.0700,106.4700,107.5700,1534800
20160516,108.1600,108.6400,107.0900,107.1900,1483800
20160517,107.0100,108.2700,106.6900,107.8200,1225000
20160518,106.3900,107.7900,106.0700,106.9300,1755100
20160519,105.6400,106.6500,104.9600,106.0000,978300
20160520,106.2100,107.0300,105.9300,106.3800,869400
20160523,106.4300,106.8300,105.8000,106.1900,1485400
20160524,107.7600,108.1500,106.4600,106.5700,1084700
20160525,108.3200,108.7300,107.7000,108.2600,800600
20160526,107.7000,109.0000,107.5900,108.3500,561900
20160527,108.6000,108.7100,107.3000,107.9600,732400
